n, Time (ms) 
64,0.166497
128,0.063691
256,0.098692
512,0.106327
1024,0.14189
2048,0.246964
4096,0.434772
8192,0.89314
16384,1.69478
32768,3.70667
65536,7.65998
131072,17.8811
262144,34.2029
524288,63.8715
1048576,111.027
2097152,255.399
4194304,505.973
8388608,933.009
16777216,1793.55
33554432,3866.66
67108864,8218.15
134217728,12285.3
268435456,26369.4
